time(y),mp_elev(m),dep_area(m^2)
0.0,0.004700854700857349,13.0
0.2,0.15343920634539643,113.0
0.4,0.29857580070648737,159.0
0.6000000000000001,0.4225634517959236,181.0
0.8,0.5259243452872511,197.0
1.0,0.6067368961566473,215.0
1.2000000000000002,0.6651904455261644,234.0
1.4000000000000001,0.7081434775975026,243.0
1.6,0.7400395157625468,257.0
1.8,0.7620111282427473,267.0
2.0,0.7767263879192541,278.0
2.2,0.7859622896366858,295.0
2.4000000000000004,0.7886966290098911,303.0
2.6,0.7859560009231359,316.0
2.8000000000000003,0.7803244001472649,336.0
3.0,0.7702054489628978,344.0
3.2,0.7560431477760545,358.0
3.4000000000000004,0.740071143247647,377.0
3.6,0.7214465813368633,388.0
3.8000000000000003,0.7000230334467687,402.0
4.0,0.6768367841455643,419.0
4.2,0.6528302144076008,435.0
4.4,0.6270159652548557,451.0
4.6000000000000005,0.5996443165839622,459.0
4.800000000000001,0.5725428388481646,469.0
5.0,0.5447403176240186,489.0
5.2,0.516171716715192,509.0
5.4,0.48746230878417407,526.0
5.6000000000000005,0.45965518858128007,538.0
5.800000000000001,0.431707475560799,552.0
6.0,0.4037554454764489,562.0
6.2,0.37682737177901515,577.0
6.4,0.35081723128675435,600.0
6.6000000000000005,0.32518733318828197,614.0
6.800000000000001,0.300001228596372,624.0
7.0,0.27650424317788236,639.0
7.2,0.2538220558668485,661.0
7.4,0.23174432869370776,671.0
7.6000000000000005,0.21028762629237008,690.0
7.800000000000001,0.19073633382244282,706.0
8.0,0.17182008956015693,716.0
8.200000000000001,0.15350829743393035,726.0
8.4,0.13588821299823906,735.0
8.6,0.11990234724370907,751.0
8.8,0.10444846117921713,763.0
9.0,0.08947831244412896,781.0
9.200000000000001,0.07506815838110015,792.0
9.4,0.06206055831879098,796.0
9.600000000000001,0.04943314096557572,812.0
9.8,0.03713890366208261,822.0
10.0,0.025172137670423922,822.0
10.200000000000001,0.014469466505588002,823.0
10.4,0.004008047679192828,805.0
10.600000000000001,-0.00624955727256804,767.0
10.8,-0.016336210022458886,736.0
11.0,-0.025428498181938153,714.0
11.200000000000001,-0.03426381337231987,712.0
11.4,-0.04298883683399879,689.0
11.600000000000001,-0.05162665580311909,673.0
11.8,-0.05963090318989828,659.0
12.0,-0.06723448242986763,655.0
12.200000000000001,-0.07478956023736316,638.0
12.4,-0.0823118325758827,628.0
12.600000000000001,-0.08957398704839648,620.0
12.8,-0.09622157099178708,620.0
13.0,-0.10285971020188356,608.0
13.200000000000001,-0.10949906987065106,597.0
13.4,-0.11614799384925334,585.0
13.600000000000001,-0.12214737454804947,581.0
13.8,-0.1280461973384206,575.0
14.0,-0.13396712304002278,563.0
14.200000000000001,-0.13991569114791957,552.0
14.4,-0.14566563968786284,551.0
14.600000000000001,-0.1509530454817849,543.0
14.8,-0.1562751541910785,536.0
15.0,-0.16163570705838026,522.0
15.200000000000001,-0.1670370030519024,520.0
15.4,-0.1720228585233201,508.0
15.600000000000001,-0.1768359998112885,504.0
15.8,-0.1816937932140945,494.0
16.0,-0.18659762352230302,485.0
16.2,-0.19154770845726432,481.0
16.400000000000002,-0.19596293726030467,480.0
16.6,-0.20038460742820519,465.0
16.8,-0.20485501525483585,453.0
17.0,-0.20937399413476498,453.0
17.2,-0.21389942355062885,445.0
17.400000000000002,-0.21793838120800046,443.0
17.6,-0.22202708844258723,435.0
17.8,-0.22616518202639213,418.0
18.0,-0.2303514771838877,418.0
18.2,-0.234538367208188,417.0
18.400000000000002,-0.23828798064590728,408.0
18.6,-0.24208680271580363,400.0
18.8,-0.2459336839250028,392.0
19.0,-0.24982678723708318,379.0
19.200000000000003,-0.2537636154699925,369.0
19.400000000000002,-0.2572734006939186,372.0
19.6,-0.26081528469396176,371.0
19.8,-0.2644028248002144,357.0
20.0,-0.2680337879708077,357.0
20.200000000000003,-0.2717053908509399,342.0
20.400000000000002,-0.2751018733876691,341.0
20.6,-0.2784129140497811,341.0
20.8,-0.2817666916346582,329.0
21.0,-0.28516075781205075,318.0
21.200000000000003,-0.28859220443226263,312.0
21.400000000000002,-0.2919408877247207,307.0
21.6,-0.29504240934346626,302.0
21.8,-0.2981835783487412,294.0
22.0,-0.3013618581209556,292.0
22.200000000000003,-0.30457432678743146,281.0
22.400000000000002,-0.3078177037869523,269.0
22.6,-0.3108379677845221,272.0
22.8,-0.3137844701173691,267.0
23.0,-0.3167650317502364,255.0
23.200000000000003,-0.31977679204355525,253.0
23.400000000000002,-0.32281659046290656,251.0
23.6,-0.32588099263978165,232.0
23.8,-0.32867902664929716,237.0
24.0,-0.33147761982827717,235.0
24.200000000000003,-0.3343046882480678,218.0
24.400000000000002,-0.3371572294874312,214.0
24.6,-0.34003201219506707,210.0
24.8,-0.34292560049124177,195.0
25.0,-0.34559047148040634,202.0
25.200000000000003,-0.3482470602305483,198.0
25.400000000000002,-0.35092686801375805,185.0
25.6,-0.35362687930397385,179.0
25.8,-0.35634390721092757,179.0
26.0,-0.35907461558767295,167.0
26.200000000000003,-0.3616798615592245,163.0
26.400000000000002,-0.3641999576732644,159.0
26.6,-0.3667385199988189,151.0
26.8,-0.36929260693820254,144.0
27.0,-0.3718591512369471,146.0
27.200000000000003,-0.374434979551026,138.0
27.400000000000002,-0.37701683221951043,127.0
27.6,-0.37942948180923963,128.0
27.8,-0.3818328968576594,124.0
28.0,-0.384247793011923,115.0
28.200000000000003,-0.38667126813525954,111.0
28.400000000000002,-0.3891003470914427,107.0
28.6,-0.3915319987588646,96.0
28.8,-0.3939631528716774,94.0
29.0,-0.3962920027369421,89.0
29.200000000000003,-0.3985746058414179,82.0
29.400000000000002,-0.4008625588675159,80.0
29.6,-0.40315310089836487,76.0
29.8,-0.40544343745629874,69.0
30.0,-0.40773075473626363,63.0
30.200000000000003,-0.41001223345693916,59.0
30.400000000000002,-0.4122850622321721,52.0
30.6,-0.41450566060460403,51.0
30.8,-0.41666586381603565,47.0
31.0,-0.4188236755677508,40.0
31.200000000000003,-0.42097652946300457,38.0
31.400000000000002,-0.4231218653673068,32.0
31.6,-0.4252571405149723,29.0
31.8,-0.42737984008068963,25.0
32.0,-0.42948748716233354,20.0
32.2,-0.431577652130656,16.0
32.4,-0.4336479613113937,13.0
32.6,-0.43569610497360145,9.0
32.800000000000004,-0.43771984460742885,6.0
33.0,-0.43971701948248665,4.0
33.2,-0.44168555248540997,1.0
33.4,0.0,0.0
33.6,0.0,0.0
33.800000000000004,0.0,0.0
34.0,0.0,0.0
34.2,0.0,0.0
34.4,0.0,0.0
34.6,0.0,0.0
34.800000000000004,0.0,0.0
35.0,0.0,0.0
35.2,0.0,0.0
35.4,0.0,0.0
35.6,0.0,0.0
35.800000000000004,0.0,0.0
36.0,0.0,0.0
36.2,0.0,0.0
36.4,0.0,0.0
36.6,0.0,0.0
36.800000000000004,0.0,0.0
37.0,0.0,0.0
37.2,0.0,0.0
37.4,0.0,0.0
37.6,0.0,0.0
37.800000000000004,0.0,0.0
38.0,0.0,0.0
38.2,0.0,0.0
38.400000000000006,0.0,0.0
38.6,0.0,0.0
38.800000000000004,0.0,0.0
39.0,0.0,0.0
39.2,0.0,0.0
39.400000000000006,0.0,0.0
39.6,0.0,0.0
39.800000000000004,0.0,0.0
40.0,0.0,0.0
40.2,0.0,0.0
40.400000000000006,0.0,0.0
40.6,0.0,0.0
40.800000000000004,0.0,0.0
41.0,0.0,0.0
41.2,0.0,0.0
41.400000000000006,0.0,0.0
41.6,0.0,0.0
41.800000000000004,0.0,0.0
42.0,0.0,0.0
42.2,0.0,0.0
42.400000000000006,0.0,0.0
42.6,0.0,0.0
42.800000000000004,0.0,0.0
43.0,0.0,0.0
43.2,0.0,0.0
43.400000000000006,0.0,0.0
43.6,0.0,0.0
43.800000000000004,0.0,0.0
44.0,0.0,0.0
44.2,0.0,0.0
44.400000000000006,0.0,0.0
44.6,0.0,0.0
44.800000000000004,0.0,0.0
45.0,0.0,0.0
45.2,0.0,0.0
45.400000000000006,0.0,0.0
45.6,0.0,0.0
45.800000000000004,0.0,0.0
46.0,0.0,0.0
46.2,0.0,0.0
46.400000000000006,0.0,0.0
46.6,0.0,0.0
46.800000000000004,0.0,0.0
47.0,0.0,0.0
47.2,0.0,0.0
47.400000000000006,0.0,0.0
47.6,0.0,0.0
47.800000000000004,0.0,0.0
48.0,0.0,0.0
48.2,0.0,0.0
48.400000000000006,0.0,0.0
48.6,0.0,0.0
48.800000000000004,0.0,0.0
49.0,0.0,0.0
49.2,0.0,0.0
49.400000000000006,0.0,0.0
49.6,0.0,0.0
49.800000000000004,0.0,0.0
50.0,0.0,0.0
50.2,0.0,0.0
50.400000000000006,0.0,0.0
50.6,0.0,0.0
50.800000000000004,0.0,0.0
51.0,0.0,0.0
51.2,0.0,0.0
51.400000000000006,0.0,0.0
51.6,0.0,0.0
51.800000000000004,0.0,0.0
52.0,0.0,0.0
52.2,0.0,0.0
52.400000000000006,0.0,0.0
52.6,0.0,0.0
52.800000000000004,0.0,0.0
53.0,0.0,0.0
53.2,0.0,0.0
53.400000000000006,0.0,0.0
53.6,0.0,0.0
53.800000000000004,0.0,0.0
54.0,0.0,0.0
54.2,0.0,0.0
54.400000000000006,0.0,0.0
54.6,0.0,0.0
54.800000000000004,0.0,0.0
55.0,0.0,0.0
55.2,0.0,0.0
55.400000000000006,0.0,0.0
55.6,0.0,0.0
55.800000000000004,0.0,0.0
56.0,0.0,0.0
56.2,0.0,0.0
56.400000000000006,0.0,0.0
56.6,0.0,0.0
56.800000000000004,0.0,0.0
57.0,0.0,0.0
57.2,0.0,0.0
57.400000000000006,0.0,0.0
57.6,0.0,0.0
57.800000000000004,0.0,0.0
58.0,0.0,0.0
58.2,0.0,0.0
58.400000000000006,0.0,0.0
58.6,0.0,0.0
58.800000000000004,0.0,0.0
59.0,0.0,0.0
59.2,0.0,0.0
59.400000000000006,0.0,0.0
59.6,0.0,0.0
59.800000000000004,0.0,0.0
60.0,0.0,0.0
60.2,0.0,0.0
60.400000000000006,0.0,0.0
60.6,0.0,0.0
60.800000000000004,0.0,0.0
61.0,0.0,0.0
61.2,0.0,0.0
61.400000000000006,0.0,0.0
61.6,0.0,0.0
61.800000000000004,0.0,0.0
62.0,0.0,0.0
62.2,0.0,0.0
62.400000000000006,0.0,0.0
62.6,0.0,0.0
62.800000000000004,0.0,0.0
63.0,0.0,0.0
63.2,0.0,0.0
63.400000000000006,0.0,0.0
63.6,0.0,0.0
63.800000000000004,0.0,0.0
64.0,0.0,0.0
64.2,0.0,0.0
64.4,0.0,0.0
64.60000000000001,0.0,0.0
64.8,0.0,0.0
65.0,0.0,0.0
65.2,0.0,0.0
65.4,0.0,0.0
65.60000000000001,0.0,0.0
65.8,0.0,0.0
66.0,0.0,0.0
66.2,0.0,0.0
66.4,0.0,0.0
66.60000000000001,0.0,0.0
66.8,0.0,0.0
67.0,0.0,0.0
67.2,0.0,0.0
67.4,0.0,0.0
67.60000000000001,0.0,0.0
67.8,0.0,0.0
68.0,0.0,0.0
68.2,0.0,0.0
68.4,0.0,0.0
68.60000000000001,0.0,0.0
68.8,0.0,0.0
69.0,0.0,0.0
69.2,0.0,0.0
69.4,0.0,0.0
69.60000000000001,0.0,0.0
69.8,0.0,0.0
70.0,0.0,0.0
70.2,0.0,0.0
70.4,0.0,0.0
70.60000000000001,0.0,0.0
70.8,0.0,0.0
71.0,0.0,0.0
71.2,0.0,0.0
71.4,0.0,0.0
71.60000000000001,0.0,0.0
71.8,0.0,0.0
72.0,0.0,0.0
72.2,0.0,0.0
72.4,0.0,0.0
72.60000000000001,0.0,0.0
72.8,0.0,0.0
73.0,0.0,0.0
73.2,0.0,0.0
73.4,0.0,0.0
73.60000000000001,0.0,0.0
73.8,0.0,0.0
74.0,0.0,0.0
74.2,0.0,0.0
74.4,0.0,0.0
74.60000000000001,0.0,0.0
74.8,0.0,0.0
75.0,0.0,0.0
75.2,0.0,0.0
75.4,0.0,0.0
75.60000000000001,0.0,0.0
75.8,0.0,0.0
76.0,0.0,0.0
76.2,0.0,0.0
76.4,0.0,0.0
76.60000000000001,0.0,0.0
76.80000000000001,0.0,0.0
77.0,0.0,0.0
77.2,0.0,0.0
77.4,0.0,0.0
77.60000000000001,0.0,0.0
77.80000000000001,0.0,0.0
78.0,0.0,0.0
78.2,0.0,0.0
78.4,0.0,0.0
78.60000000000001,0.0,0.0
78.80000000000001,0.0,0.0
79.0,0.0,0.0
79.2,0.0,0.0
79.4,0.0,0.0
79.60000000000001,0.0,0.0
79.80000000000001,0.0,0.0
80.0,0.0,0.0
80.2,0.0,0.0
80.4,0.0,0.0
80.60000000000001,0.0,0.0
80.80000000000001,0.0,0.0
81.0,0.0,0.0
81.2,0.0,0.0
81.4,0.0,0.0
81.60000000000001,0.0,0.0
81.80000000000001,0.0,0.0
82.0,0.0,0.0
82.2,0.0,0.0
82.4,0.0,0.0
82.60000000000001,0.0,0.0
82.80000000000001,0.0,0.0
83.0,0.0,0.0
83.2,0.0,0.0
83.4,0.0,0.0
83.60000000000001,0.0,0.0
83.80000000000001,0.0,0.0
84.0,0.0,0.0
84.2,0.0,0.0
84.4,0.0,0.0
84.60000000000001,0.0,0.0
84.80000000000001,0.0,0.0
85.0,0.0,0.0
85.2,0.0,0.0
85.4,0.0,0.0
85.60000000000001,0.0,0.0
85.80000000000001,0.0,0.0
86.0,0.0,0.0
86.2,0.0,0.0
86.4,0.0,0.0
86.60000000000001,0.0,0.0
86.80000000000001,0.0,0.0
87.0,0.0,0.0
87.2,0.0,0.0
87.4,0.0,0.0
87.60000000000001,0.0,0.0
87.80000000000001,0.0,0.0
88.0,0.0,0.0
88.2,0.0,0.0
88.4,0.0,0.0
88.60000000000001,0.0,0.0
88.80000000000001,0.0,0.0
89.0,0.0,0.0
89.2,0.0,0.0
89.4,0.0,0.0
89.60000000000001,0.0,0.0
89.80000000000001,0.0,0.0
90.0,0.0,0.0
90.2,0.0,0.0
90.4,0.0,0.0
90.60000000000001,0.0,0.0
90.80000000000001,0.0,0.0
91.0,0.0,0.0
91.2,0.0,0.0
91.4,0.0,0.0
91.60000000000001,0.0,0.0
91.80000000000001,0.0,0.0
92.0,0.0,0.0
92.2,0.0,0.0
92.4,0.0,0.0
92.60000000000001,0.0,0.0
92.80000000000001,0.0,0.0
93.0,0.0,0.0
93.2,0.0,0.0
93.4,0.0,0.0
93.60000000000001,0.0,0.0
93.80000000000001,0.0,0.0
94.0,0.0,0.0
94.2,0.0,0.0
94.4,0.0,0.0
94.60000000000001,0.0,0.0
94.80000000000001,0.0,0.0
95.0,0.0,0.0
95.2,0.0,0.0
95.4,0.0,0.0
95.60000000000001,0.0,0.0
95.80000000000001,0.0,0.0
96.0,0.0,0.0
96.2,0.0,0.0
96.4,0.0,0.0
96.60000000000001,0.0,0.0
96.80000000000001,0.0,0.0
97.0,0.0,0.0
97.2,0.0,0.0
97.4,0.0,0.0
97.60000000000001,0.0,0.0
97.80000000000001,0.0,0.0
98.0,0.0,0.0
98.2,0.0,0.0
98.4,0.0,0.0
98.60000000000001,0.0,0.0
98.80000000000001,0.0,0.0
99.0,0.0,0.0
99.2,0.0,0.0
99.4,0.0,0.0
99.60000000000001,0.0,0.0
99.80000000000001,0.0,0.0
100.0,0.0,0.0
100.2,0.0,0.0
100.4,0.0,0.0
100.60000000000001,0.0,0.0
100.80000000000001,0.0,0.0
101.0,0.0,0.0
101.2,0.0,0.0
101.4,0.0,0.0
101.60000000000001,0.0,0.0
101.80000000000001,0.0,0.0
102.0,0.0,0.0
102.2,0.0,0.0
102.4,0.0,0.0
102.60000000000001,0.0,0.0
102.80000000000001,0.0,0.0
103.0,0.0,0.0
103.2,0.0,0.0
103.4,0.0,0.0
103.60000000000001,0.0,0.0
103.80000000000001,0.0,0.0
104.0,0.0,0.0
104.2,0.0,0.0
104.4,0.0,0.0
104.60000000000001,0.0,0.0
104.80000000000001,0.0,0.0
105.0,0.0,0.0
105.2,0.0,0.0
105.4,0.0,0.0
105.60000000000001,0.0,0.0
105.80000000000001,0.0,0.0
106.0,0.0,0.0
106.2,0.0,0.0
106.4,0.0,0.0
106.60000000000001,0.0,0.0
106.80000000000001,0.0,0.0
107.0,0.0,0.0
107.2,0.0,0.0
107.4,0.0,0.0
107.60000000000001,0.0,0.0
107.80000000000001,0.0,0.0
108.0,0.0,0.0
108.2,0.0,0.0
108.4,0.0,0.0
108.60000000000001,0.0,0.0
108.80000000000001,0.0,0.0
109.0,0.0,0.0
109.2,0.0,0.0
109.4,0.0,0.0
109.60000000000001,0.0,0.0
109.80000000000001,0.0,0.0
110.0,0.0,0.0
110.2,0.0,0.0
110.4,0.0,0.0
110.60000000000001,0.0,0.0
110.80000000000001,0.0,0.0
111.0,0.0,0.0
111.2,0.0,0.0
111.4,0.0,0.0
111.60000000000001,0.0,0.0
111.80000000000001,0.0,0.0
112.0,0.0,0.0
112.2,0.0,0.0
112.4,0.0,0.0
112.60000000000001,0.0,0.0
112.80000000000001,0.0,0.0
113.0,0.0,0.0
113.2,0.0,0.0
113.4,0.0,0.0
113.60000000000001,0.0,0.0
113.80000000000001,0.0,0.0
114.0,0.0,0.0
114.2,0.0,0.0
114.4,0.0,0.0
114.60000000000001,0.0,0.0
114.80000000000001,0.0,0.0
115.0,0.0,0.0
115.2,0.0,0.0
115.4,0.0,0.0
115.60000000000001,0.0,0.0
115.80000000000001,0.0,0.0
116.0,0.0,0.0
116.2,0.0,0.0
116.4,0.0,0.0
116.60000000000001,0.0,0.0
116.80000000000001,0.0,0.0
117.0,0.0,0.0
117.2,0.0,0.0
117.4,0.0,0.0
117.60000000000001,0.0,0.0
117.80000000000001,0.0,0.0
118.0,0.0,0.0
118.2,0.0,0.0
118.4,0.0,0.0
118.60000000000001,0.0,0.0
118.80000000000001,0.0,0.0
119.0,0.0,0.0
119.2,0.0,0.0
119.4,0.0,0.0
119.60000000000001,0.0,0.0
119.80000000000001,0.0,0.0
120.0,0.0,0.0
120.2,0.0,0.0
120.4,0.0,0.0
120.60000000000001,0.0,0.0
120.80000000000001,0.0,0.0
121.0,0.0,0.0
121.2,0.0,0.0
121.4,0.0,0.0
121.60000000000001,0.0,0.0
121.80000000000001,0.0,0.0
122.0,0.0,0.0
122.2,0.0,0.0
122.4,0.0,0.0
122.60000000000001,0.0,0.0
122.80000000000001,0.0,0.0
123.0,0.0,0.0
123.2,0.0,0.0
123.4,0.0,0.0
123.60000000000001,0.0,0.0
123.80000000000001,0.0,0.0
124.0,0.0,0.0
124.2,0.0,0.0
124.4,0.0,0.0
124.60000000000001,0.0,0.0
124.80000000000001,0.0,0.0
125.0,0.0,0.0
125.2,0.0,0.0
125.4,0.0,0.0
125.60000000000001,0.0,0.0
125.80000000000001,0.0,0.0
126.0,0.0,0.0
126.2,0.0,0.0
126.4,0.0,0.0
126.60000000000001,0.0,0.0
126.80000000000001,0.0,0.0
127.0,0.0,0.0
127.2,0.0,0.0
127.4,0.0,0.0
127.60000000000001,0.0,0.0
127.80000000000001,0.0,0.0
128.0,0.0,0.0
128.20000000000002,0.0,0.0
128.4,0.0,0.0
128.6,0.0,0.0
128.8,0.0,0.0
129.0,0.0,0.0
129.20000000000002,0.0,0.0
129.4,0.0,0.0
129.6,0.0,0.0
129.8,0.0,0.0
130.0,0.0,0.0
130.20000000000002,0.0,0.0
130.4,0.0,0.0
130.6,0.0,0.0
130.8,0.0,0.0
131.0,0.0,0.0
131.20000000000002,0.0,0.0
131.4,0.0,0.0
131.6,0.0,0.0
131.8,0.0,0.0
132.0,0.0,0.0
132.20000000000002,0.0,0.0
132.4,0.0,0.0
132.6,0.0,0.0
132.8,0.0,0.0
133.0,0.0,0.0
133.20000000000002,0.0,0.0
133.4,0.0,0.0
133.6,0.0,0.0
133.8,0.0,0.0
134.0,0.0,0.0
134.20000000000002,0.0,0.0
134.4,0.0,0.0
134.6,0.0,0.0
134.8,0.0,0.0
135.0,0.0,0.0
135.20000000000002,0.0,0.0
135.4,0.0,0.0
135.6,0.0,0.0
135.8,0.0,0.0
136.0,0.0,0.0
136.20000000000002,0.0,0.0
136.4,0.0,0.0
136.6,0.0,0.0
136.8,0.0,0.0
137.0,0.0,0.0
137.20000000000002,0.0,0.0
137.4,0.0,0.0
137.6,0.0,0.0
137.8,0.0,0.0
138.0,0.0,0.0
138.20000000000002,0.0,0.0
138.4,0.0,0.0
138.6,0.0,0.0
138.8,0.0,0.0
139.0,0.0,0.0
139.20000000000002,0.0,0.0
139.4,0.0,0.0
139.6,0.0,0.0
139.8,0.0,0.0
140.0,0.0,0.0
140.20000000000002,0.0,0.0
140.4,0.0,0.0
140.6,0.0,0.0
140.8,0.0,0.0
141.0,0.0,0.0
141.20000000000002,0.0,0.0
141.4,0.0,0.0
141.6,0.0,0.0
141.8,0.0,0.0
142.0,0.0,0.0
142.20000000000002,0.0,0.0
142.4,0.0,0.0
142.6,0.0,0.0
142.8,0.0,0.0
143.0,0.0,0.0
143.20000000000002,0.0,0.0
143.4,0.0,0.0
143.6,0.0,0.0
143.8,0.0,0.0
144.0,0.0,0.0
144.20000000000002,0.0,0.0
144.4,0.0,0.0
144.6,0.0,0.0
144.8,0.0,0.0
145.0,0.0,0.0
145.20000000000002,0.0,0.0
145.4,0.0,0.0
145.6,0.0,0.0
145.8,0.0,0.0
146.0,0.0,0.0
146.20000000000002,0.0,0.0
146.4,0.0,0.0
146.6,0.0,0.0
146.8,0.0,0.0
147.0,0.0,0.0
147.20000000000002,0.0,0.0
147.4,0.0,0.0
147.6,0.0,0.0
147.8,0.0,0.0
148.0,0.0,0.0
148.20000000000002,0.0,0.0
148.4,0.0,0.0
148.6,0.0,0.0
148.8,0.0,0.0
149.0,0.0,0.0
149.20000000000002,0.0,0.0
149.4,0.0,0.0
149.6,0.0,0.0
149.8,0.0,0.0
150.0,0.0,0.0
150.20000000000002,0.0,0.0
150.4,0.0,0.0
150.6,0.0,0.0
150.8,0.0,0.0
151.0,0.0,0.0
151.20000000000002,0.0,0.0
151.4,0.0,0.0
151.6,0.0,0.0
151.8,0.0,0.0
152.0,0.0,0.0
152.20000000000002,0.0,0.0
152.4,0.0,0.0
152.6,0.0,0.0
152.8,0.0,0.0
153.0,0.0,0.0
153.20000000000002,0.0,0.0
153.4,0.0,0.0
153.60000000000002,0.0,0.0
153.8,0.0,0.0
154.0,0.0,0.0
154.20000000000002,0.0,0.0
154.4,0.0,0.0
154.60000000000002,0.0,0.0
154.8,0.0,0.0
155.0,0.0,0.0
155.20000000000002,0.0,0.0
155.4,0.0,0.0
155.60000000000002,0.0,0.0
155.8,0.0,0.0
156.0,0.0,0.0
156.20000000000002,0.0,0.0
156.4,0.0,0.0
156.60000000000002,0.0,0.0
156.8,0.0,0.0
157.0,0.0,0.0
157.20000000000002,0.0,0.0
157.4,0.0,0.0
157.60000000000002,0.0,0.0
157.8,0.0,0.0
158.0,0.0,0.0
158.20000000000002,0.0,0.0
158.4,0.0,0.0
158.60000000000002,0.0,0.0
158.8,0.0,0.0
159.0,0.0,0.0
159.20000000000002,0.0,0.0
159.4,0.0,0.0
159.60000000000002,0.0,0.0
159.8,0.0,0.0
160.0,0.0,0.0
160.20000000000002,0.0,0.0
160.4,0.0,0.0
160.60000000000002,0.0,0.0
160.8,0.0,0.0
161.0,0.0,0.0
161.20000000000002,0.0,0.0
161.4,0.0,0.0
161.60000000000002,0.0,0.0
161.8,0.0,0.0
162.0,0.0,0.0
162.20000000000002,0.0,0.0
162.4,0.0,0.0
162.60000000000002,0.0,0.0
162.8,0.0,0.0
163.0,0.0,0.0
163.20000000000002,0.0,0.0
163.4,0.0,0.0
163.60000000000002,0.0,0.0
163.8,0.0,0.0
164.0,0.0,0.0
164.20000000000002,0.0,0.0
164.4,0.0,0.0
164.60000000000002,0.0,0.0
164.8,0.0,0.0
165.0,0.0,0.0
165.20000000000002,0.0,0.0
165.4,0.0,0.0
165.60000000000002,0.0,0.0
165.8,0.0,0.0
166.0,0.0,0.0
166.20000000000002,0.0,0.0
166.4,0.0,0.0
166.60000000000002,0.0,0.0
166.8,0.0,0.0
167.0,0.0,0.0
167.20000000000002,0.0,0.0
167.4,0.0,0.0
167.60000000000002,0.0,0.0
167.8,0.0,0.0
168.0,0.0,0.0
168.20000000000002,0.0,0.0
168.4,0.0,0.0
168.60000000000002,0.0,0.0
168.8,0.0,0.0
169.0,0.0,0.0
169.20000000000002,0.0,0.0
169.4,0.0,0.0
169.60000000000002,0.0,0.0
169.8,0.0,0.0
170.0,0.0,0.0
170.20000000000002,0.0,0.0
170.4,0.0,0.0
170.60000000000002,0.0,0.0
170.8,0.0,0.0
171.0,0.0,0.0
171.20000000000002,0.0,0.0
171.4,0.0,0.0
171.60000000000002,0.0,0.0
171.8,0.0,0.0
172.0,0.0,0.0
172.20000000000002,0.0,0.0
172.4,0.0,0.0
172.60000000000002,0.0,0.0
172.8,0.0,0.0
173.0,0.0,0.0
173.20000000000002,0.0,0.0
173.4,0.0,0.0
173.60000000000002,0.0,0.0
173.8,0.0,0.0
174.0,0.0,0.0
174.20000000000002,0.0,0.0
174.4,0.0,0.0
174.60000000000002,0.0,0.0
174.8,0.0,0.0
175.0,0.0,0.0
175.20000000000002,0.0,0.0
175.4,0.0,0.0
175.60000000000002,0.0,0.0
175.8,0.0,0.0
176.0,0.0,0.0
176.20000000000002,0.0,0.0
176.4,0.0,0.0
176.60000000000002,0.0,0.0
176.8,0.0,0.0
177.0,0.0,0.0
177.20000000000002,0.0,0.0
177.4,0.0,0.0
177.60000000000002,0.0,0.0
177.8,0.0,0.0
178.0,0.0,0.0
178.20000000000002,0.0,0.0
178.4,0.0,0.0
178.60000000000002,0.0,0.0
178.8,0.0,0.0
179.0,0.0,0.0
179.20000000000002,0.0,0.0
179.4,0.0,0.0
179.60000000000002,0.0,0.0
179.8,0.0,0.0
180.0,0.0,0.0
180.20000000000002,0.0,0.0
180.4,0.0,0.0
180.60000000000002,0.0,0.0
180.8,0.0,0.0
181.0,0.0,0.0
181.20000000000002,0.0,0.0
181.4,0.0,0.0
181.60000000000002,0.0,0.0
181.8,0.0,0.0
182.0,0.0,0.0
182.20000000000002,0.0,0.0
182.4,0.0,0.0
182.60000000000002,0.0,0.0
182.8,0.0,0.0
183.0,0.0,0.0
183.20000000000002,0.0,0.0
183.4,0.0,0.0
183.60000000000002,0.0,0.0
183.8,0.0,0.0
184.0,0.0,0.0
184.20000000000002,0.0,0.0
184.4,0.0,0.0
184.60000000000002,0.0,0.0
184.8,0.0,0.0
185.0,0.0,0.0
185.20000000000002,0.0,0.0
185.4,0.0,0.0
185.60000000000002,0.0,0.0
185.8,0.0,0.0
186.0,0.0,0.0
186.20000000000002,0.0,0.0
186.4,0.0,0.0
186.60000000000002,0.0,0.0
186.8,0.0,0.0
187.0,0.0,0.0
187.20000000000002,0.0,0.0
