time(y),mp_elev(m),dep_area(m^2)
0.0,-0.009542483660126777,2.0
0.2,0.09432510526845306,142.0
0.4,0.2576315492840422,366.0
0.6000000000000001,0.414108758844165,500.0
0.8,0.5555774537058653,583.0
1.0,0.6817208696422483,644.0
1.2000000000000002,0.7924250216793922,693.0
1.4000000000000001,0.8907912839837024,736.0
1.6,0.9760456120450698,781.0
1.8,1.0503006546415463,805.0
2.0,1.1155647680922698,834.0
2.2,1.1749910327406496,857.0
2.4000000000000004,1.2281532407115492,889.0
2.6,1.2752451975561598,900.0
2.8000000000000003,1.3166906181653673,928.0
3.0,1.3539710836049608,945.0
3.2,1.38717853784334,957.0
3.4000000000000004,1.416038617943741,973.0
3.6,1.4409338767198676,991.0
3.8000000000000003,1.4626342482374923,1021.0
4.0,1.4821320251522963,1039.0
4.2,1.4985765440600858,1055.0
4.4,1.512183703777751,1069.0
4.6000000000000005,1.5231502110495683,1085.0
4.800000000000001,1.532825297232705,1100.0
5.0,1.5404379377535236,1126.0
5.2,1.5459165043351675,1146.0
5.4,1.5493900038814132,1165.0
5.6000000000000005,1.551355749399761,1182.0
5.800000000000001,1.5524315072289738,1194.0
6.0,1.5518569099300237,1220.0
6.2,1.5497204177002004,1238.0
6.4,1.546105609221513,1252.0
6.6000000000000005,1.5418336102496681,1277.0
6.800000000000001,1.5366504567483474,1293.0
7.0,1.5302266090827743,1305.0
7.2,1.5226212045448193,1328.0
7.4,1.5138906789245823,1338.0
7.6000000000000005,1.5050237825659138,1367.0
7.800000000000001,1.4952671899988275,1393.0
8.0,1.4845514759791314,1407.0
8.200000000000001,1.4729177550600099,1413.0
8.4,1.4604272521675767,1440.0
8.6,1.4480440404744428,1458.0
8.8,1.434873088928839,1474.0
9.0,1.4209449508509238,1490.0
9.200000000000001,1.406289410033338,1511.0
9.4,1.3909732063884377,1534.0
9.600000000000001,1.3758475928191984,1558.0
9.8,1.3600932985151246,1574.0
10.0,1.3437333386718677,1590.0
10.200000000000001,1.32679050796159,1606.0
10.4,1.309287443339315,1628.0
10.600000000000001,1.2920393483584576,1639.0
10.8,1.2743291691888743,1661.0
11.0,1.2561346841193455,1681.0
11.200000000000001,1.2374750200910256,1704.0
11.4,1.2183695741891825,1726.0
11.600000000000001,1.199416777946979,1745.0
11.8,1.1802653628190285,1761.0
12.0,1.160736411193767,1781.0
12.200000000000001,1.1408478607516344,1793.0
12.4,1.1206181768931742,1811.0
12.600000000000001,1.100374804413633,1832.0
12.8,1.0802519758019145,1856.0
13.0,1.0598544160595083,1880.0
13.200000000000001,1.0392002102884135,1892.0
13.4,1.018307995116487,1906.0
13.600000000000001,0.997196919971941,1919.0
13.8,0.9765620397238877,1938.0
14.0,0.9557617811101693,1956.0
14.200000000000001,0.93480833158047,1984.0
14.4,0.9137203601075612,2000.0
14.600000000000001,0.8925168337024587,2016.0
14.8,0.8714974297998594,2045.0
15.0,0.8507635665001629,2059.0
15.200000000000001,0.8299779521730528,2075.0
15.4,0.8091582808982167,2087.0
15.600000000000001,0.7883222326906036,2099.0
15.8,0.7674873992763338,2119.0
16.0,0.74713463356467,2144.0
16.2,0.7269605671757517,2168.0
16.400000000000002,0.7068437419202382,2178.0
16.6,0.686799223252109,2197.0
16.8,0.6668416950636669,2225.0
17.0,0.6469854016308858,2235.0
17.2,0.6278015135442132,2250.0
17.400000000000002,0.6087599531534806,2270.0
17.6,0.5898627657445843,2278.0
17.8,0.5711207005608117,2298.0
18.0,0.5525438856116125,2320.0
18.2,0.5341823240863022,2339.0
18.400000000000002,0.5164987154746399,2357.0
18.6,0.4990107413162832,2375.0
18.8,0.48172470678613877,2391.0
19.0,0.4646462365807338,2407.0
19.200000000000003,0.44778027360131034,2425.0
19.400000000000002,0.43115500555904873,2434.0
19.6,0.41523120382152,2444.0
19.8,0.3995340678797987,2466.0
20.0,0.38406493140053044,2484.0
20.200000000000003,0.3688245312269487,2498.0
20.400000000000002,0.35381303209759096,2510.0
20.6,0.3390300538051747,2526.0
20.8,0.32490246406285905,2543.0
21.0,0.3110532070486727,2561.0
21.200000000000003,0.2974304566494794,2579.0
21.400000000000002,0.2840311603415131,2591.0
21.6,0.27085191222707294,2601.0
21.8,0.2578889907961184,2609.0
22.0,0.24541890969140923,2624.0
22.200000000000003,0.23332957320364756,2646.0
22.400000000000002,0.22144574514780402,2660.0
22.6,0.20976210043284027,2674.0
22.8,0.1982732016464155,2680.0
23.0,0.18697353328045097,2696.0
23.200000000000003,0.17595220677306145,2709.0
23.400000000000002,0.16544252868609988,2723.0
23.6,0.15510709694250124,2733.0
23.8,0.14493975258788794,2745.0
24.0,0.1349344162504167,2753.0
24.200000000000003,0.12508511057590965,2765.0
24.400000000000002,0.11538598009875045,2768.0
24.6,0.10611293036694747,2779.0
24.8,0.09710367575947032,2793.0
25.0,0.08822898804943691,2805.0
25.200000000000003,0.07948309974011636,2811.0
25.400000000000002,0.07086044516809409,2819.0
25.6,0.06235566801110792,2829.0
25.8,0.0539789787844569,2831.0
26.0,0.04607935519794637,2839.0
26.200000000000003,0.03828391782893448,2837.0
26.400000000000002,0.03058769079960655,2841.0
26.6,0.0229859316397949,2836.0
26.8,0.015474130287998378,2825.0
27.0,0.008048006896785864,2791.0
27.200000000000003,0.000796451365644657,2760.0
27.400000000000002,-0.006105076915346785,2713.0
27.6,-0.012931760524224956,2649.0
27.8,-0.019687435989979463,2605.0
28.0,-0.026375722329547102,2562.0
28.200000000000003,-0.033000026821838446,2544.0
28.400000000000002,-0.03956355122149091,2511.0
28.6,-0.0459522233801124,2490.0
28.8,-0.05205631301720359,2467.0
29.0,-0.058107705528911424,2451.0
29.200000000000003,-0.06410923664311952,2425.0
29.400000000000002,-0.0700635617486256,2406.0
29.6,-0.07597316255400699,2384.0
29.8,-0.08184035379549925,2364.0
30.0,-0.08757268957303666,2346.0
30.200000000000003,-0.0930321846819595,2320.0
30.400000000000002,-0.09845514580189274,2316.0
30.6,-0.10384363339629488,2301.0
30.8,-0.1091995657325242,2279.0
31.0,-0.114524724710094,2269.0
31.200000000000003,-0.11982076159924304,2248.0
31.400000000000002,-0.12505753056139213,2227.0
31.6,-0.12998712049859762,2213.0
31.8,-0.13489183802261095,2205.0
32.0,-0.13977317879887607,2190.0
32.2,-0.1446325277685503,2176.0
32.4,-0.1494711637288617,2160.0
32.6,-0.15429026380827793,2148.0
32.800000000000004,-0.15909090784987256,2129.0
33.0,-0.1636432034167825,2118.0
33.2,-0.16811284528519366,2106.0
33.4,-0.17256714153437258,2107.0
33.6,-0.1770070997505968,2087.0
33.800000000000004,-0.1814336440060771,2079.0
34.0,-0.18584761823817075,2069.0
34.2,-0.19024978955042116,2048.0
34.4,-0.19455257567740603,2037.0
34.6,-0.19865091001803137,2019.0
34.800000000000004,-0.20273976814912942,2027.0
35.0,-0.20681989140396695,2020.0
35.2,-0.2108919541047385,1996.0
35.4,-0.2149565661098478,1984.0
35.6,-0.21901427530296758,1972.0
35.800000000000004,-0.22306557004341698,1957.0
36.0,-0.2269216393593041,1950.0
36.2,-0.23069339171095748,1944.0
36.4,-0.2344605586005173,1942.0
36.6,-0.2382236371279447,1920.0
36.800000000000004,-0.24198307138726705,1909.0
37.0,-0.24573925437833566,1897.0
37.2,-0.24949252988677983,1881.0
37.4,-0.2532431943447335,1877.0
37.6,-0.2567487585889694,1865.0
37.800000000000004,-0.26024059909761377,1867.0
38.0,-0.26373132815379563,1853.0
38.2,-0.26722127122759787,1837.0
38.400000000000006,-0.270710710819273,1824.0
38.6,-0.2741998879353389,1820.0
38.800000000000004,-0.2776890035512878,1808.0
39.0,-0.28116604536769785,1791.0
39.2,-0.284413306194665,1793.0
39.400000000000006,-0.28766170261620516,1782.0
39.6,-0.2909114744061725,1772.0
39.800000000000004,-0.29416282458664966,1758.0
40.0,-0.2974159206130764,1748.0
40.2,-0.3006708955476256,1741.0
40.400000000000006,-0.3039278492277333,1721.0
40.6,-0.30718684943084895,1713.0
40.800000000000004,-0.3102187365813194,1714.0
41.0,-0.31325278697039494,1710.0
41.2,-0.3162899985253489,1699.0
41.400000000000006,-0.31933048593703006,1685.0
41.6,-0.32237433395224,1677.0
41.800000000000004,-0.3254215983294557,1659.0
42.0,-0.32847230679307415,1653.0
42.2,-0.33152645998789865,1640.0
42.400000000000006,-0.33441214304541234,1633.0
42.6,-0.3372554889043613,1629.0
42.800000000000004,-0.34010327583763456,1623.0
43.0,-0.34295555444539616,1615.0
43.2,-0.3458123497650405,1604.0
43.400000000000006,-0.348673662065508,1594.0
43.6,-0.35153946764020816,1578.0
43.800000000000004,-0.3544097196028275,1574.0
44.0,-0.35719773880244077,1570.0
44.2,-0.35986989224034005,1556.0
44.400000000000006,-0.36254739692023463,1550.0
44.6,-0.365230256939185,1548.0
44.800000000000004,-0.3679184543199341,1536.0
45.0,-0.37061194968187294,1527.0
45.2,-0.37331068290934866,1517.0
45.400000000000006,-0.37601457382410786,1503.0
45.6,-0.3787235228584933,1495.0
45.800000000000004,-0.3812637061536037,1498.0
46.0,-0.3837869830932732,1487.0
46.2,-0.38631621918476355,1479.0
46.400000000000006,-0.38885136575387946,1467.0
46.6,-0.3913923554527514,1453.0
46.800000000000004,-0.39393910283168054,1447.0
47.0,-0.3964915049124045,1438.0
47.2,-0.3990494417648165,1424.0
47.400000000000006,-0.40157896954531225,1419.0
47.6,-0.4039616464805391,1417.0
47.800000000000004,-0.40635069336970275,1409.0
48.0,-0.4087460400424874,1407.0
48.2,-0.4111475999012413,1398.0
48.400000000000006,-0.4135552704161114,1386.0
48.6,-0.41596893361914056,1372.0
48.800000000000004,-0.4183884566015479,1368.0
49.0,-0.42081369201308405,1364.0
49.2,-0.4231908300518654,1344.0
49.400000000000006,-0.4254512368053156,1340.0
49.6,-0.42771819557911783,1336.0
49.800000000000004,-0.4299916070850003,1336.0
50.0,-0.4322713579098121,1330.0
50.2,-0.43455732094749067,1315.0
50.400000000000006,-0.43684935583051754,1301.0
50.6,-0.4391473093645146,1293.0
50.800000000000004,-0.4414510159647307,1287.0
51.0,-0.4437192931013385,1276.0
51.2,-0.4458677846480441,1273.0
51.400000000000006,-0.4480228709601164,1267.0
51.6,-0.45018443241511363,1259.0
51.800000000000004,-0.45235233716638845,1255.0
52.0,-0.45452644152318555,1247.0
52.2,-0.4567065903302421,1242.0
52.400000000000006,-0.45889261735014486,1224.0
52.6,-0.4610843456474214,1214.0
52.800000000000004,-0.4632815879732277,1208.0
53.0,-0.46532708471269757,1207.0
53.2,-0.46737901178642005,1195.0
53.400000000000006,-0.4694373471436961,1186.0
53.6,-0.4715019468642936,1186.0
53.800000000000004,-0.4735726567234053,1178.0
54.0,-0.4756493125280912,1178.0
54.2,-0.47773174045516953,1162.0
54.400000000000006,-0.4798197573912688,1151.0
54.6,-0.481913171273348,1145.0
54.800000000000004,-0.4839290919032493,1134.0
55.0,-0.485885385260886,1128.0
55.2,-0.4878479606437338,1124.0
55.400000000000006,-0.48981666689637393,1120.0
55.6,-0.49179134384998235,1111.0
55.800000000000004,-0.49377182262223585,1101.0
56.0,-0.4957579259176299,1089.0
56.2,-0.4977494683294452,1087.0
56.400000000000006,-0.49974625664279415,1081.0
56.6,-0.5017480901378235,1076.0
56.800000000000004,-0.5036279769849159,1059.0
57.0,-0.5055013288086769,1057.0
57.2,-0.5073806438912101,1053.0
57.400000000000006,-0.509265759598506,1047.0
57.6,-0.5111565056409262,1044.0
57.800000000000004,-0.5130527043417032,1028.0
58.0,-0.5149541709060088,1024.0
58.2,-0.5168607136915,1014.0
58.400000000000006,-0.5187721344789082,1010.0
58.6,-0.5206821328998927,1001.0
58.800000000000004,-0.5224720412559805,998.0
59.0,-0.5242677258040231,988.0
59.2,-0.5260690240710915,988.0
59.400000000000006,-0.5278757668248346,974.0
59.6,-0.5296877783146954,966.0
59.800000000000004,-0.5315048765129546,966.0
60.0,-0.5333268733564438,955.0
60.2,-0.535153574988982,943.0
60.400000000000006,-0.5369847820039269,935.0
60.6,-0.538820289686484,923.0
60.800000000000004,-0.5405430771198212,932.0
61.0,-0.5422656987230994,925.0
61.2,-0.5439935737245207,919.0
61.400000000000006,-0.5457265300037051,905.0
61.6,-0.54746438987749,897.0
61.800000000000004,-0.5492069703171012,899.0
62.0,-0.5509540831652799,893.0
62.2,-0.552705535354022,884.0
62.400000000000006,-0.554461129122231,870.0
62.6,-0.5562206622329029,850.0
62.800000000000004,-0.557913056362338,851.0
63.0,-0.5595666995404258,857.0
63.2,-0.5612252388205121,858.0
63.400000000000006,-0.5628885019963263,838.0
63.6,-0.5645563121031643,828.0
63.800000000000004,-0.5662284876136567,828.0
64.0,-0.5679048426331548,826.0
64.2,-0.5695851870955266,826.0
64.4,-0.5712693269585145,809.0
64.60000000000001,-0.5729570643989206,787.0
64.8,-0.574645736679301,782.0
65.0,-0.5762340757208904,786.0
65.2,-0.577826965870841,790.0
65.4,-0.5794242369315441,786.0
65.60000000000001,-0.581025714624829,761.0
65.8,-0.5826312207686186,753.0
66.0,-0.584240573453215,749.0
66.2,-0.5858535872172297,753.0
66.4,-0.5874700732233293,755.0
66.60000000000001,-0.5890898394335267,746.0
66.8,-0.5907126907837181,718.0
67.0,-0.5923243026516616,717.0
67.2,-0.5938549063019138,719.0
67.4,-0.5953895676914556,719.0
67.60000000000001,-0.596928116664543,715.0
67.8,-0.5984703797161046,690.0
68.0,-0.6000161801509165,686.0
68.2,-0.6015653382421107,684.0
68.4,-0.603117671389299,684.0
68.60000000000001,-0.6046729942761289,678.0
68.8,-0.6062311190271714,672.0
69.0,-0.6077918553639421,647.0
69.2,-0.609355010759927,645.0
69.4,-0.6108345494584455,642.0
69.60000000000001,-0.6123133119980224,648.0
69.8,-0.6137954991444019,648.0
70.0,-0.6152809402645545,638.0
70.2,-0.6167694621300939,621.0
70.4,-0.6182608890596413,617.0
70.60000000000001,-0.6197550430605787,611.0
70.8,-0.6212517439701628,611.0
71.0,-0.6227508095958143,607.0
71.2,-0.6242520558544271,586.0
71.4,-0.6257552969105262,582.0
71.60000000000001,-0.6272261219019128,583.0
71.8,-0.628651178631884,579.0
72.0,-0.6300792322419966,573.0
72.2,-0.6315101164848329,569.0
72.4,-0.6329436630116447,552.0
72.60000000000001,-0.6343797015002508,550.0
72.8,-0.6358180597820677,544.0
73.0,-0.6372585639682598,540.0
73.2,-0.6387010385750358,536.0
73.4,-0.6401453066479661,526.0
73.60000000000001,-0.6415911898850482,521.0
73.8,-0.6430385087587212,519.0
74.0,-0.6444511383481597,510.0
74.2,-0.6458271890660967,510.0
74.4,-0.6472056857021045,504.0
74.60000000000001,-0.6485864657578446,492.0
74.8,-0.6499693651575171,491.0
75.0,-0.6513542183616181,487.0
75.2,-0.6527408584798309,483.0
75.4,-0.6541291173827517,479.0
75.60000000000001,-0.6555188258127203,469.0
75.8,-0.6569098134934848,452.0
76.0,-0.6583019092387872,452.0
76.2,-0.6596949410594277,450.0
76.4,-0.6610828989435333,449.0
76.60000000000001,-0.6624111006567972,443.0
76.80000000000001,-0.6637412463214076,433.0
77.0,-0.6650731786659634,424.0
77.2,-0.6664067392691777,424.0
77.4,-0.6677417686607754,422.0
77.60000000000001,-0.669078106421324,414.0
77.80000000000001,-0.6704155912810137,408.0
78.0,-0.6717540612172854,398.0
78.2,-0.6730933535513657,391.0
78.4,-0.67443330504355,387.0
78.60000000000001,-0.6757737519872364,381.0
78.80000000000001,-0.6771145303015373,377.0
79.0,-0.6784475656189102,372.0
79.2,-0.6797306342447058,359.0
79.4,-0.6810150442355649,363.0
79.60000000000001,-0.6823006437335692,359.0
79.80000000000001,-0.6835872801665062,355.0
80.0,-0.684874800335848,353.0
80.2,-0.6861630505038931,347.0
80.4,-0.6874518764795994,338.0
80.60000000000001,-0.6887411237032808,336.0
80.80000000000001,-0.6900306373301248,332.0
81.0,-0.6913202623124874,324.0
81.2,-0.6926098434807528,318.0
81.4,-0.6938992256230563,307.0
81.60000000000001,-0.6951882535634368,303.0
81.80000000000001,-0.6964534350153286,304.0
82.0,-0.6976925174986732,306.0
82.2,-0.6989322565567946,298.0
82.4,-0.7001725066243978,288.0
82.60000000000001,-0.7014131218435864,281.0
82.80000000000001,-0.7026539561393719,275.0
83.0,-0.7038948632938542,275.0
83.2,-0.7051356970193439,273.0
83.4,-0.7063763110301906,269.0
83.60000000000001,-0.7076165591134185,254.0
83.80000000000001,-0.7088562951980748,254.0
84.0,-0.7100953734233215,248.0
84.2,-0.7113336482051196,244.0
84.4,-0.7125709743015989,240.0
84.60000000000001,-0.7138072068771422,232.0
84.80000000000001,-0.7150096709346414,224.0
85.0,-0.7162042985919754,226.0
85.2,-0.7173988376435361,224.0
85.4,-0.718593150215419,216.0
85.60000000000001,-0.7197870985295509,212.0
85.80000000000001,-0.7209805449665225,203.0
86.0,-0.7221733521271503,201.0
86.2,-0.723365382892851,197.0
86.4,-0.7245565004848089,195.0
86.60000000000001,-0.7257465685219344,187.0
86.80000000000001,-0.7269354510775514,179.0
87.0,-0.7281230127348124,174.0
87.2,-0.7293091186408631,174.0
87.4,-0.7304936345596857,170.0
87.60000000000001,-0.73167642692367,166.0
87.80000000000001,-0.7328573628838555,158.0
88.0,-0.734020525926347,154.0
88.2,-0.7351686641282029,148.0
88.4,-0.7363159339438212,148.0
88.60000000000001,-0.7374622068957137,144.0
88.80000000000001,-0.7386073549400862,140.0
89.0,-0.7397512505172159,135.0
89.2,-0.7408937666005855,131.0
89.4,-0.74203477674493,127.0
89.60000000000001,-0.7431741551330759,123.0
89.80000000000001,-0.7443117766216218,117.0
90.0,-0.7454475167854184,112.0
90.2,-0.746581251960869,110.0
90.4,-0.7477128592880433,108.0
90.60000000000001,-0.7488422167515765,102.0
90.80000000000001,-0.7499692032204024,95.0
91.0,-0.7510936984862582,93.0
91.2,-0.7522155833010089,91.0
91.4,-0.7533347394127645,89.0
91.60000000000001,-0.754451049600803,81.0
91.80000000000001,-0.7555643977093283,76.0
92.0,-0.7566701490181984,73.0
92.2,-0.757763040686072,73.0
92.4,-0.7588539290985992,69.0
92.60000000000001,-0.7599426991862614,64.0
92.80000000000001,-0.7610292366989881,58.0
93.0,-0.7621134282413209,56.0
93.2,-0.7631951613065482,56.0
93.4,-0.7642743243098025,52.0
93.60000000000001,-0.7653508066200345,49.0
93.80000000000001,-0.7664244985909008,45.0
94.0,-0.7674952915906701,43.0
94.2,-0.7685630780309936,37.0
94.4,-0.7696277513946157,34.0
94.60000000000001,-0.7706892062620909,32.0
94.80000000000001,-0.7717473383374198,30.0
95.0,-0.7728020444726553,25.0
95.2,-0.7738532226914998,23.0
95.4,-0.7749007722118506,19.0
95.60000000000001,-0.7759445934673792,15.0
95.80000000000001,-0.7769845881280801,12.0
96.0,-0.7780206591198464,10.0
96.2,-0.7790527106430787,7.0
96.4,-0.7800806481903066,7.0
96.60000000000001,-0.7811043785628939,3.0
96.80000000000001,-0.7821207919626474,1.0
97.0,0.0,0.0
97.2,0.0,0.0
97.4,0.0,0.0
97.60000000000001,0.0,0.0
97.80000000000001,0.0,0.0
98.0,0.0,0.0
98.2,0.0,0.0
98.4,0.0,0.0
98.60000000000001,0.0,0.0
98.80000000000001,0.0,0.0
99.0,0.0,0.0
99.2,0.0,0.0
99.4,0.0,0.0
99.60000000000001,0.0,0.0
99.80000000000001,0.0,0.0
100.0,0.0,0.0
100.2,0.0,0.0
100.4,0.0,0.0
100.60000000000001,0.0,0.0
100.80000000000001,0.0,0.0
101.0,0.0,0.0
101.2,0.0,0.0
101.4,0.0,0.0
101.60000000000001,0.0,0.0
101.80000000000001,0.0,0.0
102.0,0.0,0.0
102.2,0.0,0.0
102.4,0.0,0.0
102.60000000000001,0.0,0.0
102.80000000000001,0.0,0.0
103.0,0.0,0.0
103.2,0.0,0.0
103.4,0.0,0.0
103.60000000000001,0.0,0.0
103.80000000000001,0.0,0.0
104.0,0.0,0.0
104.2,0.0,0.0
104.4,0.0,0.0
104.60000000000001,0.0,0.0
104.80000000000001,0.0,0.0
105.0,0.0,0.0
105.2,0.0,0.0
105.4,0.0,0.0
105.60000000000001,0.0,0.0
105.80000000000001,0.0,0.0
106.0,0.0,0.0
106.2,0.0,0.0
106.4,0.0,0.0
106.60000000000001,0.0,0.0
106.80000000000001,0.0,0.0
107.0,0.0,0.0
107.2,0.0,0.0
107.4,0.0,0.0
107.60000000000001,0.0,0.0
107.80000000000001,0.0,0.0
108.0,0.0,0.0
108.2,0.0,0.0
108.4,0.0,0.0
108.60000000000001,0.0,0.0
108.80000000000001,0.0,0.0
109.0,0.0,0.0
109.2,0.0,0.0
109.4,0.0,0.0
109.60000000000001,0.0,0.0
109.80000000000001,0.0,0.0
110.0,0.0,0.0
110.2,0.0,0.0
110.4,0.0,0.0
110.60000000000001,0.0,0.0
110.80000000000001,0.0,0.0
111.0,0.0,0.0
111.2,0.0,0.0
111.4,0.0,0.0
111.60000000000001,0.0,0.0
111.80000000000001,0.0,0.0
112.0,0.0,0.0
112.2,0.0,0.0
112.4,0.0,0.0
112.60000000000001,0.0,0.0
112.80000000000001,0.0,0.0
113.0,0.0,0.0
113.2,0.0,0.0
113.4,0.0,0.0
113.60000000000001,0.0,0.0
113.80000000000001,0.0,0.0
114.0,0.0,0.0
114.2,0.0,0.0
114.4,0.0,0.0
114.60000000000001,0.0,0.0
114.80000000000001,0.0,0.0
115.0,0.0,0.0
115.2,0.0,0.0
115.4,0.0,0.0
115.60000000000001,0.0,0.0
115.80000000000001,0.0,0.0
116.0,0.0,0.0
116.2,0.0,0.0
116.4,0.0,0.0
116.60000000000001,0.0,0.0
116.80000000000001,0.0,0.0
117.0,0.0,0.0
117.2,0.0,0.0
117.4,0.0,0.0
117.60000000000001,0.0,0.0
117.80000000000001,0.0,0.0
118.0,0.0,0.0
118.2,0.0,0.0
118.4,0.0,0.0
118.60000000000001,0.0,0.0
118.80000000000001,0.0,0.0
119.0,0.0,0.0
119.2,0.0,0.0
119.4,0.0,0.0
119.60000000000001,0.0,0.0
119.80000000000001,0.0,0.0
120.0,0.0,0.0
120.2,0.0,0.0
120.4,0.0,0.0
120.60000000000001,0.0,0.0
120.80000000000001,0.0,0.0
121.0,0.0,0.0
121.2,0.0,0.0
121.4,0.0,0.0
121.60000000000001,0.0,0.0
121.80000000000001,0.0,0.0
122.0,0.0,0.0
122.2,0.0,0.0
122.4,0.0,0.0
122.60000000000001,0.0,0.0
