time(y),mp_elev(m),dep_area(m^2)
0.0,-0.009542483660126777,2.0
0.2,0.09493285289111952,142.0
0.4,0.26165129690195954,374.0
0.6000000000000001,0.4242267145669416,510.0
0.8,0.5758875013274434,597.0
1.0,0.7174726747994242,666.0
1.2000000000000002,0.8496570287396423,719.0
1.4000000000000001,0.9729828820654944,760.0
1.6,1.0878930355755756,788.0
1.8,1.1947661581155131,815.0
2.0,1.2942438863416044,842.0
2.2,1.3881883674923046,874.0
2.4000000000000004,1.4752674419456469,891.0
2.6,1.5558584126070087,909.0
2.8000000000000003,1.630376355080017,923.0
3.0,1.6992665367476576,931.0
3.2,1.7629907685701482,942.0
3.4000000000000004,1.822011154200709,964.0
3.6,1.8767741922276429,974.0
3.8000000000000003,1.927783795899174,987.0
4.0,1.9767800383074956,999.0
4.2,2.0227233220967378,1009.0
4.4,2.0658855349064282,1015.0
4.6000000000000005,2.106492486588891,1021.0
4.800000000000001,2.144728221824394,1035.0
5.0,2.180741029937522,1044.0
5.2,2.2146503312379053,1054.0
5.4,2.2465537063105643,1054.0
5.6000000000000005,2.27653347096107,1064.0
5.800000000000001,2.305170897677044,1077.0
6.0,2.3327712185063234,1087.0
6.2,2.3587055189414627,1095.0
6.4,2.3830320165782126,1103.0
6.6000000000000005,2.4058100193450684,1113.0
6.800000000000001,2.4271003507385274,1123.0
7.0,2.446965154660461,1133.0
7.2,2.465467297997833,1137.0
7.4,2.4826695641216077,1145.0
7.6000000000000005,2.498633793420808,1149.0
7.800000000000001,2.5136630365289534,1152.0
8.0,2.5283689137123417,1164.0
8.200000000000001,2.542047893531759,1173.0
8.4,2.5547467500665846,1179.0
8.6,2.566508687002994,1185.0
8.8,2.577373455951559,1197.0
9.0,2.5873775920644135,1209.0
9.200000000000001,2.5965547293497764,1219.0
9.4,2.604935959744921,1227.0
9.600000000000001,2.6125502044172464,1233.0
9.8,2.619424571517868,1243.0
10.0,2.626037120741344,1248.0
10.200000000000001,2.632404576544758,1262.0
10.4,2.6381334759403785,1268.0
10.600000000000001,2.6432432986809715,1270.0
10.8,2.6477527233425064,1278.0
11.0,2.651679762325685,1286.0
11.200000000000001,2.6550418602034256,1298.0
11.4,2.6578559620597275,1302.0
11.600000000000001,2.660138558507626,1306.0
11.8,2.661905713597534,1312.0
12.0,2.6631730808703793,1316.0
12.200000000000001,2.664143903297969,1330.0
12.4,2.6652292738622805,1342.0
12.600000000000001,2.665881165859176,1358.0
12.8,2.6661115525090366,1364.0
13.0,2.6659319361057783,1376.0
13.200000000000001,2.665353380174821,1382.0
13.4,2.664386543019404,1392.0
13.600000000000001,2.6630417118523013,1396.0
13.8,2.6613288366083765,1404.0
14.0,2.659257562540546,1406.0
14.200000000000001,2.656837260770345,1408.0
14.4,2.654077055973957,1412.0
14.600000000000001,2.6512728146820876,1421.0
14.8,2.6485413698725324,1439.0
15.0,2.645512683561037,1451.0
15.200000000000001,2.642193636035458,1453.0
15.4,2.6385909001834733,1463.0
15.600000000000001,2.6347109633547063,1465.0
15.8,2.6305601463855766,1479.0
16.0,2.626144619976884,1487.0
16.2,2.6214704186514552,1495.0
16.400000000000002,2.616543452536675,1496.0
16.6,2.6113695172115854,1504.0
16.8,2.605954301762921,1512.0
17.0,2.6003384466104933,1525.0
17.2,2.5950576214405316,1535.0
17.400000000000002,2.58956539213456,1547.0
17.6,2.5838660396976962,1553.0
17.8,2.577963727998096,1561.0
18.0,2.5718625141358586,1563.0
18.2,2.565566358232118,1571.0
18.400000000000002,2.5590791326160343,1577.0
18.6,2.5524046303808774,1589.0
18.8,2.54554657327823,1593.0
19.0,2.5385086189207158,1599.0
19.200000000000003,2.5312943672503962,1605.0
19.400000000000002,2.5239073661997793,1611.0
19.6,2.5164254761869813,1622.0
19.8,2.5092420297552565,1634.0
20.0,2.5019067936745216,1642.0
20.200000000000003,2.494422385845823,1646.0
20.400000000000002,2.4867913693806827,1652.0
20.6,2.4790162592138927,1662.0
20.8,2.471099528119254,1672.0
21.0,2.463043612128928,1680.0
21.200000000000003,2.4548509153645455,1689.0
21.400000000000002,2.446523814293073,1697.0
21.6,2.438064661425784,1705.0
21.8,2.4294757884753864,1713.0
22.0,2.420759508951761,1717.0
22.200000000000003,2.4119181203386972,1723.0
22.400000000000002,2.4032770370475447,1732.0
22.6,2.3946824120938146,1740.0
22.8,2.3859776840447324,1742.0
23.0,2.3771645165855944,1750.0
23.200000000000003,2.368244550488086,1754.0
23.400000000000002,2.3592194067566226,1766.0
23.6,2.350090689498259,1778.0
23.8,2.3408599885225527,1788.0
24.0,2.3315288816771584,1796.0
24.200000000000003,2.322098936926267,1804.0
24.400000000000002,2.312571714178148,1810.0
24.6,2.3029487668593163,1816.0
24.8,2.2932316432192295,1824.0
25.0,2.2834218874804293,1830.0
25.200000000000003,2.273803220473198,1843.0
25.400000000000002,2.264256524988909,1847.0
25.6,2.254628466539728,1857.0
25.8,2.2449201346653354,1859.0
26.0,2.2351326098524,1863.0
26.200000000000003,2.225266965594045,1870.0
26.400000000000002,2.215324270290793,1884.0
26.6,2.2053055889932267,1890.0
26.8,2.1952119849865994,1900.0
27.0,2.1850445212190976,1906.0
27.200000000000003,2.1748042615759573,1908.0
27.400000000000002,2.164492271999137,1910.0
27.6,2.1541096214341167,1918.0
27.8,2.1436573826608196,1926.0
28.0,2.133160798329243,1937.0
28.200000000000003,2.1229730282598354,1953.0
28.400000000000002,2.1127245384868587,1961.0
28.6,2.102416080394832,1967.0
28.8,2.092048405703707,1981.0
29.0,2.0816222679380587,1983.0
29.200000000000003,2.0711384237946504,1993.0
29.400000000000002,2.0605976344085235,2001.0
29.6,2.0500006665182298,2007.0
29.8,2.0393482935313756,2011.0
30.0,2.02864129649177,2017.0
30.200000000000003,2.0178804649500393,2021.0
30.400000000000002,2.0070665977357294,2027.0
30.6,1.996200503618212,2029.0
30.8,1.98528300190749,2035.0
31.0,1.9743149229839219,2041.0
31.200000000000003,1.9636311019575743,2048.0
31.400000000000002,1.9529344686750534,2062.0
31.6,1.9421941865935821,2070.0
31.8,1.9314108609569587,2076.0
32.0,1.9205851064954516,2083.0
32.2,1.90971754840254,2097.0
32.4,1.8988088232417937,2107.0
32.6,1.887859579783651,2113.0
32.800000000000004,1.8768704797721512,2121.0
33.0,1.8658421986221327,2129.0
33.2,1.8547754260469702,2131.0
33.4,1.843670866617046,2141.0
33.6,1.832529240239566,2143.0
33.800000000000004,1.821351282572678,2147.0
34.0,1.810137745402585,2163.0
34.2,1.7989552272280491,2170.0
34.4,1.7880093086972693,2178.0
34.6,1.7770339122722874,2186.0
34.800000000000004,1.7660296417835752,2192.0
35.0,1.7549971157377797,2192.0
35.2,1.7439369679400158,2194.0
35.4,1.7328498480570715,2208.0
35.6,1.7217364221210971,2218.0
35.800000000000004,1.710597372973396,2226.0
36.0,1.699433400648502,2228.0
36.2,1.6882452226984697,2230.0
36.4,1.6770335744577238,2242.0
36.6,1.6657992092480924,2252.0
36.800000000000004,1.6545428985171355,2256.0
37.0,1.6432654319204545,2256.0
37.2,1.631967617368005,2270.0
37.4,1.62065028100659,2270.0
37.6,1.6095941273504621,2285.0
37.800000000000004,1.5985521029024738,2293.0
38.0,1.5874961114770372,2305.0
38.2,1.5764268774622252,2311.0
38.400000000000006,1.5653451414061266,2314.0
38.6,1.5542516601140761,2326.0
38.800000000000004,1.5431472066944991,2332.0
39.0,1.532032570553909,2336.0
39.2,1.520908557341457,2344.0
39.400000000000006,1.509775988843785,2344.0
39.6,1.4986357028309385,2356.0
39.800000000000004,1.4874885528541029,2368.0
40.0,1.4763354079941138,2370.0
40.2,1.465177152556322,2378.0
40.400000000000006,1.4540146857345206,2384.0
40.6,1.442848921236262,2392.0
40.800000000000004,1.4316909580456354,2397.0
41.0,1.4208066308709277,2403.0
41.2,1.4099244085994798,2411.0
41.400000000000006,1.3990451192210855,2419.0
41.6,1.3881696017620868,2423.0
41.800000000000004,1.377298705974809,2431.0
42.0,1.3664332919911573,2435.0
42.2,1.3555742299415954,2439.0
42.400000000000006,1.3447223995403021,2451.0
42.6,1.3338786896378707,2463.0
42.800000000000004,1.323043997742559,2471.0
43.0,1.3122192295115127,2475.0
43.2,1.3014052982129698,2477.0
43.400000000000006,1.29060312415983,2485.0
43.6,1.2798136341111928,2491.0
43.800000000000004,1.2690377606574685,2497.0
44.0,1.258276441588805,2505.0
44.2,1.2475306192367128,2513.0
44.400000000000006,1.2369541387629113,2518.0
44.6,1.226507207851185,2524.0
44.800000000000004,1.2160806981115968,2530.0
45.0,1.2056754494000756,2534.0
45.2,1.195292302076922,2546.0
45.400000000000006,1.18493209646104,2552.0
45.6,1.1745956722706836,2564.0
45.800000000000004,1.1642838680521521,2569.0
46.0,1.1539975205972155,2579.0
46.2,1.1437374643506928,2583.0
46.400000000000006,1.1335045308095033,2589.0
46.6,1.1232995479141294,2595.0
46.800000000000004,1.1131233394337414,2599.0
47.0,1.1029767243444013,2603.0
47.2,1.0928605162000622,2607.0
47.400000000000006,1.0827755225108433,2613.0
47.6,1.0727225441203103,2619.0
47.800000000000004,1.0627023745797857,2625.0
48.0,1.0528465391304564,2632.0
48.2,1.0431398990064906,2648.0
48.400000000000006,1.0334701295564486,2650.0
48.6,1.0238378958699883,2658.0
48.800000000000004,1.0142438523974846,2666.0
49.0,1.004688642499147,2674.0
49.2,0.9951728980004333,2682.0
49.400000000000006,0.9856972387541987,2688.0
49.6,0.9762622722108603,2696.0
49.800000000000004,0.9668685929970451,2704.0
50.0,0.9575167825035749,2712.0
50.2,0.9482074084838246,2718.0
50.400000000000006,0.9389410246627108,2722.0
50.6,0.9297181703566793,2730.0
50.800000000000004,0.9205393701025599,2732.0
51.0,0.9114051333046689,2738.0
51.2,0.9023159538991479,2740.0
51.400000000000006,0.8932723100297864,2746.0
51.6,0.8842746637383527,2750.0
51.800000000000004,0.8755268247107182,2757.0
52.0,0.8668510827309603,2765.0
52.2,0.8582240387545568,2773.0
52.400000000000006,0.8496460108915187,2779.0
52.6,0.8411172997643064,2785.0
52.800000000000004,0.8326381884051557,2793.0
53.0,0.8242089421703298,2801.0
53.2,0.8158298086706992,2805.0
53.400000000000006,0.8075010177192183,2811.0
53.6,0.7992227812953843,2815.0
53.800000000000004,0.7909952935264783,2819.0
54.0,0.7828187306859746,2827.0
54.2,0.774693251208717,2831.0
54.400000000000006,0.7666189957221974,2839.0
54.6,0.7585960870922719,2843.0
54.800000000000004,0.7506246304905915,2850.0
55.0,0.742704713480407,2856.0
55.2,0.7348364061165427,2860.0
55.400000000000006,0.7270197610616833,2866.0
55.6,0.7193931756737157,2879.0
55.800000000000004,0.7118923030122346,2889.0
56.0,0.7044443411820538,2899.0
56.2,0.6970492112089204,2907.0
56.400000000000006,0.6897068175217953,2915.0
56.6,0.6824170482380083,2921.0
56.800000000000004,0.6751797754614017,2929.0
57.0,0.6679948555926245,2931.0
57.2,0.6608621296510364,2937.0
57.400000000000006,0.6537814236078106,2949.0
57.6,0.6467525487296797,2951.0
57.800000000000004,0.639775301932417,2957.0
58.0,0.63284946614381,2957.0
58.2,0.6259748106749612,2959.0
58.400000000000006,0.6191510915979848,2965.0
58.6,0.6123780521317741,2967.0
58.800000000000004,0.6056554230387974,2973.0
59.0,0.5989829230263268,2981.0
59.2,0.5923602591525139,2985.0
59.400000000000006,0.5857871272371398,2991.0
59.6,0.5794227199144331,2998.0
59.800000000000004,0.5731457865880998,3010.0
60.0,0.5669183959969359,3014.0
60.2,0.5607401502707461,3018.0
60.400000000000006,0.5546106424426682,3024.0
60.6,0.5485294569303676,3032.0
60.800000000000004,0.5424961700164772,3036.0
61.0,0.5365103503273474,3048.0
61.2,0.5305715593096636,3056.0
61.400000000000006,0.5246793517041226,3060.0
61.6,0.5188332760154566,3062.0
61.800000000000004,0.5130328749785065,3066.0
62.0,0.50727768601935,3068.0
62.2,0.5015672417108874,3076.0
62.400000000000006,0.49590107022122254,3088.0
62.6,0.49027869575591865,3094.0
62.800000000000004,0.4846996389966449,3098.0
63.0,0.479163417531268,3104.0
63.2,0.47366954627544544,3110.0
63.400000000000006,0.46821753788573517,3116.0
63.6,0.46287183858383685,3123.0
63.800000000000004,0.45768661531231203,3131.0
64.0,0.4525426253678404,3139.0
64.2,0.44743933203022834,3141.0
64.4,0.4423761982955199,3143.0
64.60000000000001,0.43735268727235166,3145.0
64.8,0.43236826256706706,3157.0
65.0,0.4274223886569928,3159.0
65.2,0.42251453125184923,3167.0
65.4,0.4176441576431529,3173.0
65.60000000000001,0.41281073704115556,3173.0
65.8,0.40801374089959097,3175.0
66.0,0.40325264322777343,3183.0
66.2,0.39852692089004904,3187.0
66.4,0.3938360538924002,3193.0
66.60000000000001,0.3891795256549244,3195.0
66.8,0.3845568232734564,3201.0
67.0,0.37996743777014785,3209.0
67.2,0.3754108643302203,3213.0
67.4,0.37088660252587147,3219.0
67.60000000000001,0.3663941565278037,3225.0
67.8,0.36198147000851577,3234.0
68.0,0.3577236932099481,3242.0
68.2,0.35349697760038623,3246.0
68.4,0.3493008103693853,3250.0
68.60000000000001,0.3451346842447549,3254.0
68.8,0.3409980976625633,3256.0
69.0,0.3368905549249206,3266.0
69.2,0.33281156634620856,3273.0
69.4,0.3287606483877994,3281.0
69.60000000000001,0.32473732378140596,3287.0
69.8,0.32074112164153235,3293.0
70.0,0.31677157756701035,3295.0
70.2,0.31282823373213375,3307.0
70.4,0.3089106389675038,3311.0
70.60000000000001,0.30501834883065726,3315.0
70.8,0.3011509256663345,3317.0
71.0,0.29730793865753924,3327.0
71.2,0.2934889638696916,3337.0
71.4,0.2896935842852173,3337.0
71.60000000000001,0.2859213898291699,3345.0
71.8,0.2821719773867386,3345.0
72.0,0.278444950812883,3349.0
72.2,0.2748349530245662,3350.0
72.4,0.27131326123235056,3356.0
72.60000000000001,0.26781338306336977,3360.0
72.8,0.26433491876859705,3368.0
73.0,0.26087747559076035,3372.0
73.2,0.2574406677553043,3376.0
73.4,0.25402411645524126,3388.0
73.60000000000001,0.25062744982987795,3394.0
73.8,0.24725030293814143,3398.0
74.0,0.24389231772637743,3400.0
74.2,0.24055314299110364,3404.0
74.4,0.2372324343369172,3410.0
74.60000000000001,0.23392985412984046,3412.0
74.8,0.2306450714463324,3414.0
75.0,0.22737776201803683,3420.0
75.2,0.22412760817204003,3426.0
75.4,0.22089429876817235,3432.0
75.60000000000001,0.21767752913432048,3440.0
75.8,0.2144770009980448,3444.0
76.0,0.21129242241492818,3446.0
76.2,0.20812350769436705,3452.0
76.4,0.20496997732277578,3456.0
76.60000000000001,0.20187254896723061,3461.0
76.80000000000001,0.1989004304771953,3463.0
77.0,0.1959433778339843,3463.0
77.2,0.19300110875275323,3467.0
77.4,0.19007334678912002,3479.0
77.60000000000001,0.1871598212682386,3487.0
77.80000000000001,0.18426026721239452,3493.0
78.0,0.18137442526717962,3501.0
78.2,0.1785020416263876,3503.0
78.4,0.17564286795584394,3507.0
78.60000000000001,0.1727966613162124,3515.0
78.80000000000001,0.16996318408496336,3521.0
79.0,0.1671422038777166,3523.0
79.2,0.16433349346868908,3525.0
79.4,0.16153683071088665,3529.0
79.60000000000001,0.15875199845527277,3533.0
79.80000000000001,0.15597878446946822,3537.0
80.0,0.15321698135740291,3541.0
80.2,0.15046638647902455,3543.0
80.4,0.14772680186956677,3541.0
80.60000000000001,0.14499803415861834,3543.0
80.80000000000001,0.14227989448940548,3547.0
81.0,0.13957219843823054,3549.0
81.2,0.13692042024365492,3554.0
81.4,0.1343752699641243,3554.0
81.60000000000001,0.1318404333810861,3562.0
81.80000000000001,0.12931572030635152,3571.0
82.0,0.12680094466375635,3577.0
82.2,0.12429592442320825,3581.0
82.4,0.12180048153526712,3583.0
82.60000000000001,0.11931444186588891,3589.0
82.80000000000001,0.11683763513160983,3591.0
83.0,0.11436989483508597,3595.0
83.2,0.11191105820113734,3595.0
83.4,0.10946096611314005,3603.0
83.60000000000001,0.10701946305000831,3603.0
83.80000000000001,0.10458639702355299,3611.0
84.0,0.1021616195164583,3613.0
84.2,0.09974498542047172,3615.0
84.4,0.09733635297479992,3621.0
84.60000000000001,0.09493558370602528,3627.0
84.80000000000001,0.0925425423689461,3635.0
85.0,0.09015709688756601,3637.0
85.2,0.08777911829659502,3641.0
85.4,0.0854084806836255,3645.0
85.60000000000001,0.08304506113189802,3649.0
85.80000000000001,0.0806887396636995,3649.0
86.0,0.0784375249750795,3654.0
86.2,0.07622880677180888,3656.0
86.4,0.07402716138290799,3660.0
86.60000000000001,0.0718324606738463,3678.0
86.80000000000001,0.06964457925293743,3678.0
87.0,0.06746339442791793,3680.0
87.2,0.06528878616292388,3680.0
87.4,0.06312063703595783,3688.0
87.60000000000001,0.06095883219677489,3686.0
87.80000000000001,0.058803259325244994,3692.0
88.0,0.05665380859016267,3696.0
88.2,0.054510372608440605,3700.0
88.4,0.05237284640485029,3698.0
88.60000000000001,0.05024112737210373,3702.0
88.80000000000001,0.048115115231340155,3704.0
89.0,0.045994711992783266,3706.0
89.2,0.04387982191672535,3708.0
89.4,0.04177035147576191,3708.0
89.60000000000001,0.039666209317466894,3712.0
89.80000000000001,0.037567306227138886,3710.0
90.0,0.03547355509098793,3712.0
90.2,0.03338487085966335,3722.0
90.4,0.03130117051224346,3720.0
90.60000000000001,0.029222373020608927,3718.0
90.80000000000001,0.02721192390460203,3715.0
91.0,0.02526842981063737,3712.0
91.2,0.023329868527213193,3715.0
91.4,0.021396150040331463,3712.0
91.60000000000001,0.019467186226080457,3702.0
91.80000000000001,0.01754289082430205,3699.0
92.0,0.01562317941246505,3697.0
92.2,0.013707969379829876,3692.0
92.4,0.011797179901755328,3686.0
92.60000000000001,0.00989073191420431,3685.0
92.80000000000001,0.007988548088519565,3672.0
93.0,0.0060905528063273096,3670.0
93.2,0.0041966721347037605,3664.0
93.4,0.0023068338014553547,3658.0
93.60000000000001,0.00042096717064055156,3650.0
93.80000000000001,-0.0014609967818799419,3640.0
94.0,-0.0033391254929853176,3628.0
94.2,-0.005213484836140481,3623.0
94.4,-0.007084139144737378,3633.0
94.60000000000001,-0.00895115123546475,3624.0
94.80000000000001,-0.010814582431663666,3613.0
95.0,-0.012674492586477015,3611.0
95.2,-0.014530940105821344,3611.0
95.4,-0.016383981971188177,3598.0
95.60000000000001,-0.018233673762246383,3588.0
95.80000000000001,-0.020005798032784128,3585.0
96.0,-0.021730559569874686,3576.0
96.2,-0.023451921483790272,3561.0
96.4,-0.025169948245384433,3544.0
96.60000000000001,-0.026884702969894647,3542.0
96.80000000000001,-0.0285962474332635,3540.0
97.0,-0.030304642088410105,3533.0
97.2,-0.03200994608146601,3523.0
97.4,-0.033712217267989786,3507.0
97.60000000000001,-0.0354115122290537,3488.0
97.80000000000001,-0.03710788628734463,3476.0
98.0,-0.038801393523222316,3472.0
98.2,-0.040492086790706594,3461.0
98.4,-0.04218001773338642,3442.0
98.60000000000001,-0.04386523680039289,3413.0
98.80000000000001,-0.0455477932623225,3385.0
99.0,-0.047227735227359346,3367.0
99.2,-0.04890510965701367,3360.0
99.4,-0.050579962381426924,3348.0
99.60000000000001,-0.05225233811490426,3338.0
99.80000000000001,-0.05392228047141856,3324.0
100.0,-0.05558983198010026,3308.0
100.2,-0.05725503410067034,3288.0
100.4,-0.058917927238780976,3278.0
100.60000000000001,-0.06057855076132057,3272.0
100.80000000000001,-0.06222628601011593,3255.0
101.0,-0.06377103587841759,3246.0
101.2,-0.06531345721268877,3236.0
101.4,-0.06685359772060195,3228.0
101.60000000000001,-0.06839150409046368,3220.0
101.80000000000001,-0.06992722200205748,3214.0
102.0,-0.071460796137508,3198.0
102.2,-0.07299227019220922,3196.0
102.4,-0.07452168688572414,3188.0
102.60000000000001,-0.07604908797270582,3176.0
102.80000000000001,-0.07757451425385398,3173.0
103.0,-0.07909800558688573,3165.0
103.2,-0.08061960089749931,3155.0
103.4,-0.08213933819035191,3137.0
103.60000000000001,-0.08365725456004469,3131.0
103.80000000000001,-0.08517338620219306,3123.0
104.0,-0.08668776842456083,3123.0
104.2,-0.08820043565828684,3117.0
104.4,-0.08971142146872779,3103.0
104.60000000000001,-0.09122075856623724,3101.0
104.80000000000001,-0.09272847881705815,3093.0
105.0,-0.09423461325429372,3080.0
105.2,-0.09573919208882842,3076.0
105.4,-0.09724224472029874,3066.0
105.60000000000001,-0.09874379974796454,3064.0
105.80000000000001,-0.10024388498165138,3052.0
106.0,-0.10174252745260759,3042.0
106.2,-0.10314499360901408,3031.0
106.4,-0.1045356274619067,3031.0
106.60000000000001,-0.10592477100033904,3025.0
106.80000000000001,-0.10731245889040508,3025.0
107.0,-0.10869872502038902,3017.0
107.2,-0.11008360250846749,3006.0
107.4,-0.11146712371044742,3002.0
107.60000000000001,-0.11284932022757488,2996.0
107.80000000000001,-0.11423022291432972,2990.0
108.0,-0.1156098618862984,2986.0
108.2,-0.11698826652804684,2986.0
108.4,-0.1183654655010642,2980.0
108.60000000000001,-0.1197414867516784,2980.0
108.80000000000001,-0.12111635751902838,2974.0
109.0,-0.12249010434307905,2970.0
109.2,-0.12386275307274275,2964.0
109.4,-0.12523432887407893,2951.0
109.60000000000001,-0.12660485623837303,2945.0
109.80000000000001,-0.12797435898991694,2935.0
110.0,-0.1293428602940665,2933.0
